   PKT No.	     X	     Y	     Z	Angle(Degree)
0, -0.06, -0.06, 0.00, 0.21
1, -0.25, -0.15, -0.00, 0.61
2, 0.15, 0.18, -0.00, -0.80
3, 0.70, 1.28, 0.01, -1.29
4, 1.11, 2.24, -0.00, -2.16
5, 0.67, 2.71, 0.02, -3.21
6, 1.05, 2.46, 0.02, -5.03
7, 1.10, 1.64, 0.04, -4.15
8, 0.67, 2.73, 0.04, -2.16
9, 0.72, 3.76, 0.04, -0.94
10, 1.73, 3.59, 0.04, -0.32
11, 2.86, 3.16, 0.03, 0.55
12, 3.49, 2.13, 0.02, 0.74
13, 4.16, 1.05, -0.01, 0.86
14, 4.80, -0.00, -0.04, 0.82
15, 5.40, -1.11, -0.07, 0.87
16, 6.01, -2.26, -0.12, 0.79
17, 6.72, -3.29, -0.16, 0.81
18, 7.38, -4.39, -0.21, 0.87
19, 7.97, -5.55, -0.26, 0.93
20, 8.52, -6.69, -0.31, 0.90
21, 9.23, -7.74, -0.36, 0.83
22, 9.80, -8.86, -0.41, 0.82
23, 10.45, -9.87, -0.45, 0.75
24, 11.13, -10.90, -0.50, 0.78
25, 11.80, -11.96, -0.54, 0.81
26, 12.44, -13.04, -0.59, 0.78
27, 13.17, -14.10, -0.64, 0.83
28, 13.78, -15.20, -0.68, 0.78
29, 14.35, -16.33, -0.73, 0.83
30, 15.01, -17.36, -0.77, 0.75
31, 15.69, -18.38, -0.82, 0.77
32, 16.27, -19.45, -0.87, 0.84
33, 16.92, -20.54, -0.92, 0.78
34, 17.55, -21.64, -0.97, 0.81
35, 18.18, -22.73, -1.02, 0.85
36, 18.64, -23.85, -1.07, 0.86
37, 18.49, -24.94, -1.10, 2.18
38, 17.43, -25.53, -1.12, 2.44
39, 16.40, -26.19, -1.14, 2.34
40, 15.42, -26.87, -1.18, 2.28
41, 14.49, -27.54, -1.21, 2.40
42, 13.52, -28.00, -1.24, 3.22
43, 12.95, -27.10, -1.24, 4.56
44, 13.84, -26.31, -1.14, 5.52
45, 14.99, -25.90, -1.09, 5.63
46, 16.12, -25.39, -1.05, 5.55
47, 17.17, -24.87, -1.04, 5.50
48, 18.08, -24.14, -1.05, 5.42
49, 19.04, -23.50, -1.06, 5.41
50, 19.83, -22.71, -1.09, 5.17
51, 20.76, -21.90, -1.12, 5.46
52, 21.85, -21.31, -1.16, 5.49
53, 22.95, -20.70, -1.20, 5.71
54, 23.95, -20.56, -1.23, 5.95
55, 24.60, -21.61, -1.25, 7.64
56, 23.83, -22.72, -1.22, 8.53
57, 22.63, -23.21, -1.20, 8.93
58, 21.37, -23.47, -1.24, 9.08
59, 20.13, -23.19, -1.29, 9.58
60, 18.98, -22.85, -1.34, 9.41
61, 17.75, -22.82, -1.38, 9.23
62, 16.48, -22.87, -1.43, 9.03
63, 15.16, -23.13, -1.48, 8.92
64, 13.90, -23.52, -1.52, 8.97
65, 12.59, -23.76, -1.57, 8.99
66, 11.25, -23.91, -1.62, 9.05
67, 9.92, -24.16, -1.67, 9.02
68, 8.57, -24.38, -1.72, 9.05
69, 7.23, -24.69, -1.78, 9.04
70, 5.87, -24.86, -1.83, 9.07
71, 4.52, -25.10, -1.89, 9.09
72, 3.14, -25.31, -1.95, 9.17
73, 1.74, -25.25, -2.00, 9.20
74, 0.40, -25.38, -2.05, 9.07
75, -0.98, -25.62, -2.11, 9.04
76, -2.38, -25.79, -2.17, 9.15
77, -3.73, -25.92, -2.23, 8.97
78, -4.85, -26.51, -2.27, 8.43
79, -4.96, -27.26, -2.24, 7.61
80, -4.88, -28.35, -2.23, 6.63
81, -3.68, -28.16, -2.19, 6.07
82, -2.85, -29.03, -2.18, 7.44
83, -2.86, -30.13, -2.20, 6.95
84, -1.94, -30.37, -2.19, 6.79
85, -1.99, -30.39, -2.20, 7.12
86, -2.01, -30.56, -2.16, 7.32
87, -2.00, -30.61, -2.17, 7.24
88, -1.93, -30.49, -2.19, 6.99
89, -1.96, -30.59, -2.19, 7.10
90, -1.88, -30.50, -2.06, 6.77
91, -2.08, -30.39, -2.19, 7.31
92, -1.56, -30.22, -2.19, 6.81
93, -0.97, -30.47, -2.33, 6.80
94, -1.28, -30.22, -2.35, 6.93
95, -1.82, -30.14, -2.33, 4.30
96, -2.17, -29.85, -2.32, 4.18
97, -2.51, -28.51, -2.31, 3.99
98, -3.43, -27.77, -2.31, 3.34
99, -4.59, -27.71, -2.29, 2.76
100, -4.96, -28.25, -2.28, 0.91
101, -3.91, -28.24, -2.25, -0.44
102, -2.70, -28.15, -2.23, 0.25
103, -2.17, -29.21, -2.21, 1.12
104, -2.04, -30.02, -2.20, 0.82
105, -1.27, -30.39, -2.18, 0.44
106, -1.26, -30.26, -2.18, 0.42
107, -1.28, -30.49, -2.13, 0.43
108, -1.77, -30.46, -2.12, -0.92
109, -1.24, -30.43, -2.12, 0.45
110, -0.92, -30.71, -1.88, 0.34
111, -1.23, -30.51, -2.03, 0.52
112, -1.24, -30.93, -1.54, -2.06
113, -1.34, -30.97, -1.80, -1.97
114, -1.16, -30.80, -1.69, -1.99
115, -1.11, -30.89, -1.75, -2.20
116, -1.80, -30.08, -1.73, -2.28
117, -2.12, -28.71, -1.71, -2.08
118, -3.04, -27.75, -1.70, -3.08
119, -4.33, -27.58, -1.69, -3.10
120, -4.18, -27.45, -1.67, -1.08
121, -4.43, -27.79, -1.66, 0.94
122, -3.74, -26.66, -1.66, -1.02
123, -2.60, -26.03, -1.65, -0.46
124, -1.26, -25.78, -1.63, -0.34
125, 0.09, -25.62, -1.61, -0.38
126, 1.42, -25.47, -1.59, -0.37
127, 2.74, -25.36, -1.58, -0.35
128, 4.05, -25.15, -1.56, -0.36
129, 5.31, -24.87, -1.55, -0.36
130, 6.57, -24.77, -1.53, -0.31
131, 7.80, -24.49, -1.51, -0.34
132, 9.05, -24.46, -1.49, -0.27
133, 10.27, -24.27, -1.48, -0.34
134, 11.49, -24.15, -1.46, -0.28
135, 12.69, -23.98, -1.44, -0.27
136, 13.90, -23.73, -1.42, -0.27
137, 15.13, -23.50, -1.40, -0.29
138, 16.34, -23.44, -1.37, -0.25
139, 17.57, -23.30, -1.35, -0.27
140, 18.81, -23.22, -1.32, -0.25
141, 20.03, -23.07, -1.30, -0.31
142, 21.25, -23.06, -1.27, -0.23
143, 22.49, -22.89, -1.24, -0.27
144, 23.73, -22.74, -1.23, -0.27
145, 24.94, -22.63, -1.20, -0.23
146, 26.14, -22.42, -1.18, -0.26
147, 27.35, -22.50, -1.16, -0.09
148, 28.57, -22.44, -1.13, -0.32
149, 29.33, -21.53, -1.11, -1.47
150, 28.69, -20.68, -1.09, -3.00
151, 27.52, -20.90, -1.07, -3.74
152, 26.63, -21.70, -1.05, -4.07
153, 25.57, -22.26, -1.03, -3.59
154, 24.37, -22.50, -1.01, -3.75
155, 23.37, -23.10, -0.98, -3.36
156, 22.27, -22.71, -0.95, -2.60
157, 21.21, -22.09, -0.92, -2.64
158, 20.09, -21.74, -0.90, -3.40
159, 19.10, -22.49, -0.87, -4.03
160, 18.13, -23.25, -0.85, -3.84
161, 17.05, -23.76, -0.83, -3.44
162, 15.92, -23.67, -0.81, -2.77
163, 14.86, -23.10, -0.79, -2.80
164, 13.75, -22.61, -0.77, -2.86
165, 12.55, -22.55, -0.74, -3.63
166, 11.61, -23.35, -0.72, -4.00
167, 10.69, -24.09, -0.70, -3.70
168, 9.57, -23.94, -0.68, -2.73
169, 8.57, -23.25, -0.65, -2.60
170, 7.48, -22.92, -0.63, -3.52
171, 6.52, -23.70, -0.61, -3.95
172, 5.67, -24.57, -0.59, -3.98
173, 5.02, -25.66, -0.56, -4.55
174, 4.96, -26.97, -0.53, -4.69
175, 4.91, -28.24, -0.51, -4.76
176, 4.98, -29.51, -0.48, -4.80
177, 5.25, -30.69, -0.46, -4.94
178, 6.05, -31.10, -0.44, -6.76
179, 6.17, -29.84, -0.42, -8.00
180, 5.97, -28.55, -0.39, -8.08
181, 5.64, -27.28, -0.36, -8.12
182, 5.25, -26.00, -0.34, -8.16
183, 4.79, -24.78, -0.32, -8.28
184, 4.24, -23.59, -0.30, -8.27
185, 3.78, -22.37, -0.27, -8.19
186, 3.45, -21.13, -0.24, -8.16
187, 3.04, -19.92, -0.21, -8.29
188, 2.16, -19.02, -0.19, -9.08
189, 0.84, -18.97, -0.17, -9.49
190, -0.44, -19.05, -0.15, -9.51
191, -1.71, -19.16, -0.13, -9.46
192, -2.98, -19.11, -0.12, -9.43
193, -4.24, -18.98, -0.09, -9.39
194, -5.51, -19.01, -0.06, -9.75
195, -6.20, -20.06, -0.03, -10.79
196, -6.30, -21.33, 0.00, -10.96
197, -6.33, -22.61, 0.03, -11.07
198, -5.98, -23.83, 0.05, -11.61
199, -4.94, -24.67, 0.06, -11.97
200, -4.60, -25.47, 0.08, -10.61
201, -4.48, -26.39, 0.12, -12.38
202, -3.30, -26.48, 0.14, -12.14
203, -2.58, -27.41, 0.16, -11.27
204, -2.64, -28.28, 0.18, -10.82
205, -2.32, -29.27, 0.20, -11.67
206, -2.22, -29.59, 0.20, -12.84
207, -2.28, -29.55, 0.20, -12.64
